rho[g/cm^3]	U[kJ/kg]	P[GPa]	T[K]
8.373321838980626	-28100.49566824437	-15.634802535565893	300.0
8.451579038078322	-28121.704176469888	-18.18691488733296	300.0
8.531307589667481	-28140.60053369118	-16.132494293963397	300.0
8.612563013596215	-28157.39536288202	-14.250446775174847	300.0
8.69537388716268	-28171.90248837378	-12.04689305025165	300.0
8.779793926886175	-28183.876261775815	-9.711061098035875	300.0
8.865869868433377	-28193.24075538298	-7.3218660205553086	300.0
8.953651555744111	-28199.794513991154	-4.472585661026335	300.0
9.04319085313009	-28203.18916348754	-1.9396731720949856	300.0
9.134536415284895	-28203.886146791006	0.8157458252073851	300.0
9.227744816012672	-28201.027457468157	4.040823008013799	300.0
9.322872237594776	-28194.756253298685	7.364480331760444	300.0
9.419992031791764	-28184.54127551614	10.914294140001555	300.0
9.519147904454712	-28170.51792460603	14.360323682843587	300.0
9.620414174341741	-28152.3519306351	18.5035481129674	300.0
9.72385894153398	-28129.515795982566	22.49352836610978	300.0
9.829554039968706	-28102.376935467404	26.64992417845424	300.0
9.937567395109138	-28070.113543445714	31.44618896794131	300.0
10.04798580343975	-28032.618427924477	36.210782189826936	300.0
10.160887196686009	-27989.571658269535	41.66222898367486	300.0
10.276348685900405	-27940.38414844571	46.940951602527946	300.0
10.39447043211771	-27885.454812646047	52.44557794467539	300.0
10.515334844170093	-27823.781076273703	58.81503518660264	300.0
10.639046705953001	-27755.139152436775	65.0411546421216	300.0
10.765702285348116	-27679.27304961902	72.31716878063001	300.0
10.895407915836524	-27595.119545103986	79.2664798094533	300.0
11.028281916908476	-27503.571200611204	86.4675260385907	300.0
11.164431857349642	-27402.949379477708	94.95477683045584	300.0
11.30398652451786	-27293.061324113314	103.7335697352624	300.0
11.447074202492905	-27173.07888201376	112.93767208471242	300.0
11.593836145450243	-27042.91883829375	122.32301561514348	300.0
11.744403595158587	-26901.940156404075	132.0955246786716	300.0
11.89893555931468	-26749.574671521863	143.41457824293025	300.0
12.057588384979205	-26583.981078400924	155.4426051015347	300.0
12.220526748043522	-26405.442401594006	167.39158462473517	300.0
12.387929119735105	-26212.964058867947	180.07635220954202	300.0
12.559984018899243	-26005.901487614057	194.2849743920699	300.0
12.736889432864322	-25782.325231182574	209.3317928057245	300.0
12.91884140893562	-25542.276426906286	224.5372696865388	300.0
13.106072739498611	-25284.38249955464	241.3193341857824	300.0
13.29880527367511	-25007.301668120934	259.3282731662439	300.0
13.497298179661756	-24709.8242611274	277.9607490767281	300.0
13.701804622927341	-24391.102380155036	297.9787903092595	300.0
13.912592806630395	-24049.109719636625	319.8740242355409	300.0
14.1299821985094	-23682.420813582845	342.27235996413253	300.0
14.354273006347015	-23289.94258531475	367.3176734244871	300.0
14.58579067871181	-22868.452221672153	393.3624113033335	300.0
14.824898999126455	-22417.97064393405	421.3385602489216	300.0
15.071982940199147	-21934.41468181167	451.2906588341253	300.0
15.327438932938916	-21417.469576241987	483.5420461975662	300.0
15.591703705827788	-20862.61845236246	517.7905981133636	300.0
15.86524690964453	-20269.566532052646	554.5227430844485	300.0
16.14855759515529	-19633.12087839221	594.4010590262258	300.0
16.44215978745781	-18952.322874909652	635.7778713325549	300.0
16.746649279866133	-18222.74943973947	681.741607228581	300.0
17.06262215768325	-17440.245706197456	732.1559135632133	300.0
17.390750190768554	-16600.34322387565	784.3895333779504	300.0
17.731743505067787	-15701.169658209457	840.1876044755836	300.0
18.086376479010184	-14735.971205812042	903.1101601049312	300.0
18.455492353418098	-13699.042241547078	969.5201934650406	300.0
18.83997413770641	-12586.550885234927	1039.8936128546138	300.0
19.240825390756285	-11391.874267620042	1117.882305732913	300.0
19.65910499200654	-10106.89893895866	1202.058961461751	300.0
20.095981286971785	-8725.084304594106	1294.077735022015	300.0
20.552702434347456	-7236.453747979337	1393.5950210749131	300.0
21.03067322217541	-5634.087035981963	1500.130704771576	300.0
21.531404570696232	-3907.014145169396	1618.4210583681815	300.0
22.056554116294688	-2042.7932772825118	1746.85500195262	300.0
22.60797304903572	-29.825595962893452	1888.4527706437584	300.0
23.18766155115147	2147.9500736899486	2041.8169586379177	300.0
23.797859806195966	4502.865046952165	2210.4978309406024	300.0
24.44105110965088	7056.680717278292	2398.46682747258	300.0
25.11997560037134	9827.563078614243	2617.2792504159347	300.0
25.837680150907566	12837.601682506933	2817.269721437048	300.0
26.07892506415218	13855.490927548848	2875.639011764686	300.0
26.392179926014105	15189.499677484158	2980.804305749881	300.0
26.71305749350364	16571.265182168918	3087.8902579528667	300.0
27.041839428415162	18002.814804987356	3201.3898334030737	300.0
27.37879748544967	19486.96844865808	3317.5681711350685	300.0
27.724277335529003	21024.160758091282	3433.9949130934983	300.0
28.07858119924184	22616.97844634119	3562.9074992796905	300.0
28.442051515106378	24270.964705005434	3702.022347635626	300.0
28.815075209020222	25987.94027070133	3837.971860527765	300.0
29.197986262745165	27768.165248674206	3984.52112098877	300.0
29.59123203825824	29618.608766650068	4140.728152963289	300.0
29.99520071367258	31539.767410561937	4299.77637853494	300.0
30.41036648914428	33535.96259435349	4468.150923931508	300.0
30.83717865039543	35609.687590673726	4639.838792191044	300.0
31.27612641621626	37763.62255296543	4820.551416284904	300.0
31.727783087951977	40003.7329765491	5019.486438100082	300.0
32.19265903063259	42336.120109814176	5220.782842844916	300.0
32.671343223097075	44761.10118002446	5434.900192787231	300.0
33.16451288816112	47288.870478811376	5663.591681652284	300.0
33.672772225547014	49920.21396354607	5894.061309077526	300.0
34.19686192243699	52661.56162835498	6145.969283178056	300.0
34.73752362095319	55521.70956696957	6413.453885068542	300.0
35.29554601795656	58505.76456308504	6693.230774993388	300.0
35.87182006270489	61621.339366774686	6987.460713113114	300.0
36.467213593704166	64874.662987099866	7299.418951448502	300.0
37.08268318718437	68275.7331969311	7635.703836768976	300.0
37.719284406534534	71834.5012252156	7989.16048115763	300.0
38.37814810202051	75560.0691096283	8370.008428322342	300.0
39.060414100216455	79467.27142853639	8781.53897415587	300.0
39.76741496752101	83568.96887536801	9226.569213445404	300.0
40.50044200627971	87882.7023923139	9709.126064133256	300.0
41.26098648209979	92424.01482438177	10229.127247854609	300.0
42.05068403144776	97212.52678026071	10790.839476615918	300.0
42.87118490223017	102265.86606055853	11393.966133577174	300.0
43.72435778787411	107604.63175388119	12039.277447022105	300.0
44.612162006917245	113249.04906959136	12741.901140835773	300.0
45.53674983306622	119226.87298734262	13500.991344961782	300.0
46.25576797559314	123942.2743338988	14106.558522511605	300.0
46.997839119586615	128870.83738444763	14749.435520131734	300.0
47.76409000749145	134024.53650008576	15428.320223081328	300.0
48.55577853791545	139417.5581704623	16146.617661891583	300.0
49.374134355970206	145063.21689216886	16909.239471661218	300.0
50.220527936502144	150978.23791358492	17724.02615666329	300.0
51.09648788001568	157179.97200504242	18583.374747600403	300.0
52.00350451886177	163683.90759282585	19497.578196632552	300.0
52.94332649212975	170511.94088314736	20475.617838910737	300.0
53.917743124357116	177684.60150135698	21514.044719180187	300.0
54.928724471016864	185225.25225699728	22631.54491653551	300.0
55.978317932246476	193161.21712843503	23822.36994792207	300.0
57.068778623410175	201516.4346122436	25089.82455854923	300.0
58.20259488999222	210322.8922454914	26459.71548036497	300.0
59.38237665908648	219614.74209213394	27930.25687247937	300.0
60.61097696050171	229426.00728008218	29496.94430051069	300.0
61.89155113643868	239793.25780587163	31178.51926751629	300.0
63.22727680256639	250759.65832690924	33006.62906017058	300.0
64.6220287894316	262378.4067690452	34988.05347786561	300.0
66.07966853656164	274700.33307794365	37120.08660607565	300.0
67.60454744758239	287781.4435637583	39433.29968143469	300.0
69.20154264065117	301689.35042511224	41960.872263789046	300.0
70.87577351098949	316491.94195060944	44707.19054115662	300.0
71.45199931189185	321637.89702940953	45693.80806590238	300.0
72.03771290029198	326895.043510585	46692.58828896349	300.0
72.63306624496865	332266.29685294366	47698.07744984765	300.0
73.23829929468913	337752.60450710874	48734.86974666079	300.0
73.85370360816212	343360.19066322106	49821.54243557963	300.0
74.4796264013788	349092.40483727877	50905.50100718287	300.0
75.11620440480938	354949.54110216873	52045.80265583358	300.0
75.76375789105774	360939.52461635723	53207.13048155976	300.0
76.42252651294862	367060.7527883836	54393.98239645845	300.0
77.09289913961113	373322.10422166425	55633.23310500181	300.0
77.77518509170528	379724.9789946137	56889.887206203	300.0
78.46960638716693	386274.00387744955	58205.29650157383	300.0
79.17653977804231	392974.4132970083	59546.14913206672	300.0
79.89632650329725	399829.002356095	60924.84400592883	300.0
80.62926838158322	406842.92191407754	62343.206129197264	300.0
81.37583519600747	414020.47622479114	63796.6098251997	300.0
82.1364643268019	421368.2323282928	65317.89675214485	300.0
82.9112822204028	428890.02774647233	66874.46765717254	300.0
83.70091347964475	436591.156731505	68470.14187406031	300.0
84.50567289800257	444477.2823608274	70128.93203744295	300.0
85.32611576486352	452555.22026131843	71826.90045480483	300.0
86.16276436954648	460830.9620210738	73594.61422612547	300.0
87.01586163958464	469310.87169700686	75423.86207090558	300.0
87.88595915362697	478000.29325868416	77294.7401520013	300.0
88.77369611477472	486907.47108996403	79236.62464495323	300.0
89.6795501567622	496039.62020207435	81250.18724159869	300.0
90.60401601204028	505403.5283660599	83312.85830916345	300.0
91.54787411836143	515007.3600418842	85452.41718488376	300.0
92.51153595118627	524859.7427779321	87680.71198491368	300.0
93.49563138424774	534968.6858878	89982.09543222177	300.0
94.50095999489598	545345.0516152073	92362.87733021707	300.0
95.52821647133366	555997.4481152087	94816.4470400988	300.0
96.57797709189776	566934.2338983016	97381.11711594228	300.0
97.65106572625218	578168.8713202066	100035.8404111728	300.0
98.74826871194041	589709.9010708916	102777.45148668798	300.0
99.87040812912156	601570.2772841819	105646.14359732164	300.0
101.01834385474365	613762.2143279045	108584.31144058064	300.0
102.19305920160049	626295.7299559058	111667.5709819193	300.0
103.39516064678168	639186.6728395815	114863.39355138392	300.0
104.62605438742077	652447.0905644047	118180.02925923649	300.0
105.88660819310272	666095.548861287	121630.84964032508	300.0
107.17799896783778	680142.5496112482	125204.2951315306	300.0
108.50118414028022	694607.0454708636	128951.75915814083	300.0
109.85744894203373	709505.241007892	132840.0260497009	300.0
111.24795067791382	724855.6980746177	136910.4771628624	300.0
